id,title,lat,lng
4,101,7.065735102,125.5964779
5,102,7.065739094,125.5964665
6,103,7.065742754,125.5964558
7,104,7.065745916,125.5964449
8,105,7.065749742,125.596433
9,106,7.065753569,125.5964215
10,107,7.06575756,125.5964111
11,108,7.06576122,125.596401
12,109,7.065765712,125.5963898
13,110,7.065769289,125.5963777
15,112,7.065746917,125.5964692
16,111,7.065743091,125.5964811
17,113,7.065750245,125.5964587
18,114,7.065753406,125.5964483
19,115,7.065757565,125.5964365
20,116,7.065761724,125.5964248
21,117,7.0657658,125.5964142
22,118,7.065769459,125.5964039
23,119,7.065773158,125.5963928
24,120,7.065777899,125.5963808
25,121,7.065750412,125.5964839
26,122,7.065754321,125.596472
27,123,7.065757899,125.5964619
28,124,7.065761476,125.5964515
29,125,7.065766212,125.5964396
30,126,7.065770958,125.5964274
31,127,7.06577495,125.5964168
32,128,7.065778692,125.596407
33,129,7.065782934,125.596396
34,130,7.065786966,125.5963842
35,131,7.065758398,125.5964874
36,132,7.065762891,125.5964756
37,133,7.065766551,125.596465
38,134,7.065770876,125.5964548
39,135,7.065775528,125.5964429
40,136,7.065780108,125.5964311
41,137,7.065783685,125.5964211
42,138,7.065786928,125.5964115
43,139,7.065791918,125.596399
44,140,7.065795661,125.5963876
45,141,7.065768042,125.5964915
46,142,7.065772202,125.5964798
47,143,7.065777109,125.5964691
48,144,7.06578052,125.5964578
49,145,7.065785265,125.5964474
50,146,7.065789174,125.596436
51,147,7.065793001,125.5964251
52,148,7.065795912,125.5964147
53,149,7.0658004,125.5964026
54,150,7.065804644,125.5963908
55,151,7.06577753,125.5964949
56,152,7.065781517,125.5964835
57,153,7.065785183,125.5964722
58,154,7.065789343,125.5964619
59,155,7.065793335,125.596451
60,156,7.065797327,125.5964389
61,157,7.065800987,125.5964283
62,158,7.065804813,125.5964186
63,159,7.065809636,125.596406
64,160,7.065814044,125.5963943
65,161,7.065786348,125.5964984
66,162,7.065790175,125.5964868
67,163,7.065793835,125.5964758
68,164,7.065797661,125.596466
69,165,7.065801321,125.5964541
70,166,7.065806145,125.5964424
71,167,7.06581047,125.5964317
72,168,7.065813797,125.596422
73,169,7.065818455,125.5964094
74,170,7.065823029,125.5963977
75,171,7.065795657,125.5965024
76,172,7.065798827,125.5964909
77,173,7.065802986,125.5964803
78,174,7.065806813,125.5964699
79,175,7.065811304,125.5964582
80,176,7.065815296,125.5964458
81,177,7.065818789,125.5964354
82,178,7.065821785,125.5964248
83,179,7.065825778,125.5964129
84,180,7.065830511,125.5964005
85,181,7.065809466,125.5964947
86,182,7.065813792,125.5964836
87,183,7.065817452,125.5964736
88,184,7.065820947,125.596462
89,185,7.065824607,125.596451
90,186,7.065827768,125.5964389
91,187,7.065830763,125.5964283
92,188,7.065841076,125.596433
93,189,7.065837087,125.5964439
94,1,7.065630791,125.5964374
95,9,7.065641272,125.5964413
96,2,7.065634949,125.5964268
97,3,7.065639109,125.5964159
98,4,7.0656436,125.5964044
99,5,7.065647759,125.5963931
100,6,7.065652085,125.5963812
101,7,7.065656577,125.5963693
102,8,7.065664064,125.59635
103,17,7.065652582,125.5964464
104,26,7.065663894,125.5964508
105,35,7.065676536,125.5964555
106,44,7.065688021,125.5964603
107,53,7.065700414,125.596465
108,62,7.06571181,125.5964697
109,71,7.065722374,125.5964735
110,10,7.065644765,125.5964303
111,11,7.065648425,125.5964198
112,12,7.065653083,125.596408
113,13,7.06565691,125.5963968
114,14,7.065661568,125.5963861
115,15,7.06566606,125.5963743
116,16,7.065674544,125.5963546
117,18,7.06565659,125.5964354
118,19,7.065660588,125.5964243
119,20,7.065664396,125.5964129
120,21,7.065668389,125.5964018
121,22,7.065672568,125.5963904
122,23,7.065677372,125.5963797
123,24,7.065681365,125.5963697
124,25,7.065685857,125.5963586
125,27,7.065667082,125.5964404
126,28,7.065671571,125.5964287
127,29,7.065675567,125.5964183
128,30,7.065679203,125.5964075
129,31,7.065683194,125.5963978
130,32,7.065687876,125.5963854
131,33,7.065692179,125.5963742
132,34,7.065696671,125.5963624
133,36,7.065679536,125.5964441
134,37,7.065682864,125.596433
135,38,7.065686857,125.596423
136,39,7.06569085,125.5964126
137,40,7.065694842,125.5964022
138,41,7.065699164,125.5963908
139,42,7.065702826,125.5963792
140,43,7.065707152,125.5963663
141,45,7.06569168,125.5964483
142,46,7.065695341,125.5964369
143,47,7.065699333,125.5964265
144,48,7.065702495,125.5964169
145,49,7.065706159,125.5964057
146,50,7.065709812,125.596395
147,51,7.065713974,125.5963834
148,52,7.065718465,125.5963708
149,54,7.065703829,125.5964531
150,55,7.065707155,125.5964414
151,56,7.065710814,125.5964305
152,57,7.065713976,125.5964211
153,58,7.065717298,125.5964106
154,59,7.065721125,125.5963998
155,60,7.06572512,125.5963878
156,61,7.06573011,125.5963757
157,63,7.06571547,125.5964578
158,64,7.065719132,125.5964454
159,65,7.065722291,125.5964349
160,66,7.065724952,125.5964256
161,67,7.065728113,125.5964156
162,68,7.065731937,125.5964052
163,69,7.065736099,125.5963928
164,70,7.065740258,125.5963794
165,72,7.065724957,125.5964619
166,73,7.065728943,125.5964491
167,74,7.065732433,125.5964384
168,75,7.065735765,125.596429
169,76,7.065739589,125.5964194
170,77,7.065743746,125.5964091
171,78,7.06574708,125.5963965
172,79,7.065751405,125.5963839
173,190,7.065858045,125.59648
174,191,7.065851723,125.596483
175,192,7.065845069,125.5964863
176,194,7.065831094,125.5964932
177,193,7.065838081,125.5964893
178,195,7.06582394,125.5964964
179,196,7.065815622,125.5965006
180,197,7.065808635,125.5965044
181,198,7.065800816,125.5965085
182,199,7.065793329,125.5965125
183,200,7.065786841,125.5965155
184,201,7.065855799,125.5964756
185,202,7.065849644,125.5964785
186,203,7.065842989,125.5964818
187,204,7.065835752,125.5964855
188,205,7.065828599,125.596489
189,206,7.065821944,125.5964919
190,207,7.065813542,125.5964963
191,208,7.065806971,125.5964991
192,209,7.065798986,125.5965038
193,210,7.065791333,125.5965075
194,211,7.065785011,125.5965101
195,220,7.065783015,125.5965048
196,230,7.065788005,125.5964974
197,219,7.065789669,125.5965024
198,218,7.065796989,125.5964994
199,217,7.065819615,125.5964877
200,216,7.06582602,125.5964845
201,215,7.065833589,125.5964806
202,214,7.065840743,125.5964774
203,213,7.065847398,125.5964739
204,212,7.065853553,125.5964712
205,221,7.065851224,125.5964665
206,222,7.065844902,125.5964692
207,223,7.06583858,125.5964722
208,224,7.065831593,125.5964763
209,225,7.065823608,125.59648
210,226,7.065817286,125.5964826
211,227,7.065809966,125.596487
212,228,7.065803145,125.5964905
213,229,7.065795326,125.5964947
214,331,7.065790002,125.5964414
215,232,7.065848895,125.5964619
216,239,7.065779022,125.5964957
217,238,7.065786009,125.5964922
218,237,7.065792996,125.5964892
219,236,7.065821611,125.5964753
220,235,7.065829597,125.5964714
221,234,7.065835919,125.5964676
222,233,7.065842906,125.5964645
223,240,7.065840244,125.5964598
224,241,7.065819948,125.5964702
225,242,7.065811629,125.5964736
226,243,7.065804975,125.5964763
227,244,7.065797322,125.5964793
228,245,7.065790335,125.5964833
229,246,7.065783347,125.5964857
230,247,7.06577636,125.5964893
231,248,7.065770038,125.5964927
232,249,7.065764382,125.5964957
233,250,7.065845235,125.5964521
234,251,7.065837582,125.5964548
235,252,7.065831926,125.5964582
236,253,7.065824938,125.5964612
237,254,7.065817951,125.5964649
238,255,7.065809633,125.5964686
239,256,7.065803311,125.5964716
240,257,7.065795326,125.5964746
241,258,7.065788671,125.5964786
242,259,7.065781684,125.596481
243,260,7.065774364,125.5964843
244,261,7.065768042,125.5964877
245,262,7.065762053,125.5964914
246,263,7.065842906,125.5964471
247,264,7.065835586,125.5964501
248,265,7.065822609,125.5964562
249,266,7.065815622,125.5964602
250,267,7.065786342,125.5964736
251,268,7.06578002,125.5964759
252,269,7.065772367,125.5964796
253,270,7.065766045,125.5964826
254,271,7.065760056,125.5964853
255,272,7.065755065,125.5964873
256,273,7.065750074,125.5964898
257,274,7.065746331,125.5964913
258,275,7.06584091,125.5964421
259,276,7.065833589,125.5964458
260,277,7.065827933,125.5964488
261,278,7.065820613,125.5964521
262,279,7.065813626,125.5964558
263,280,7.06580564,125.5964598
264,281,7.065798986,125.5964625
265,282,7.065791333,125.5964652
266,283,7.065784345,125.5964686
267,284,7.065777691,125.5964712
268,285,7.065770371,125.5964746
269,286,7.065763716,125.5964779
270,287,7.06575806,125.5964806
271,288,7.065752736,125.5964823
272,289,7.065748078,125.5964847
273,290,7.065838913,125.596437
274,291,7.065831593,125.5964407
275,292,7.065818284,125.5964471
276,293,7.065811629,125.5964508
277,294,7.065796989,125.5964572
278,295,7.065789004,125.5964602
279,296,7.065782682,125.5964632
280,297,7.065775694,125.5964662
281,298,7.065768042,125.5964699
282,299,7.06576172,125.5964733
283,300,7.065756063,125.5964759
284,301,7.065750407,125.5964779
285,302,7.065836584,125.5964323
286,303,7.065829929,125.5964364
287,304,7.065823275,125.5964391
288,305,7.065815955,125.5964421
289,306,7.065809633,125.5964451
290,307,7.06580198,125.5964481
291,308,7.06578002,125.5964582
292,309,7.065773365,125.5964608
293,310,7.065766378,125.5964649
294,311,7.065759723,125.5964682
295,312,7.065754067,125.5964712
296,313,7.065748411,125.5964733
297,314,7.065834255,125.596427
298,315,7.065827933,125.5964307
299,316,7.065813958,125.5964374
300,317,7.065807304,125.5964401
301,318,7.065791998,125.5964471
302,319,7.065785011,125.5964494
303,320,7.065777691,125.5964531
304,321,7.065771036,125.5964558
305,322,7.065764382,125.5964595
306,323,7.065757394,125.5964629
307,324,7.065752071,125.5964659
308,325,7.065832259,125.5964216
309,326,7.065825937,125.5964253
310,327,7.065818617,125.596429
311,328,7.065811629,125.5964327
312,329,7.065804975,125.5964347
313,330,7.065797655,125.596438
314,332,7.065783015,125.5964441
315,333,7.065775694,125.5964478
316,334,7.065768707,125.5964501
317,335,7.065762053,125.5964545
318,336,7.065755065,125.5964575
319,337,7.065830262,125.5964169
320,338,7.06582394,125.5964199
321,339,7.065802646,125.59643
322,340,7.065795326,125.5964333
323,341,7.065788005,125.5964367
324,342,7.065781018,125.5964394
325,343,7.065773365,125.5964431
326,344,7.065766378,125.5964454
327,345,7.0658276,125.5964116
328,346,7.065800316,125.5964253
329,347,7.065792996,125.5964287
330,348,7.065785676,125.596432
331,349,7.065779354,125.5964347
332,350,7.065771702,125.596438
333,351,7.065763716,125.5964404
334,352,7.065757394,125.5964434
335,353,7.065825604,125.5964069
336,354,7.065818949,125.5964095
337,355,7.06581296,125.5964122
338,356,7.065805307,125.5964173
339,357,7.065797655,125.5964207
340,358,7.065791333,125.5964243
341,359,7.06578368,125.5964274
342,360,7.065777358,125.59643
343,361,7.065823275,125.5964012
344,362,7.065817286,125.5964039
345,363,7.065803311,125.5964109
346,364,7.06579466,125.5964156
347,365,7.065789004,125.5964186
348,366,7.065781684,125.5964213
349,367,7.065774696,125.596424
350,368,7.065792664,125.5964076
351,369,7.065786009,125.5964103
352,370,7.065779022,125.5964129
353,371,7.065772367,125.5964156
354,372,7.065765047,125.5964196
355,373,7.065790335,125.5963995
356,374,7.065783015,125.5964029
357,375,7.065776027,125.5964056
358,376,7.065769373,125.5964086
359,377,7.065772034,125.5963942
